SITE CODE= –¥–ÊŽs–¥–Ê
LAT=  34.8319
LON= 135.4708
SAMPLING RATE= 100Hz
UNIT  = gal(cm/s/s)
INITIAL TIME= 2021 02 13 23 10 40
NS, EW, UD
   -0.068,   -0.192,   -0.082
   -0.063,   -0.189,   -0.084
   -0.055,   -0.186,   -0.087
   -0.045,   -0.184,   -0.090
   -0.030,   -0.182,   -0.092
   -0.010,   -0.177,   -0.091
    0.015,   -0.169,   -0.088
    0.044,   -0.160,   -0.084
    0.073,   -0.150,   -0.080
    0.104,   -0.139,   -0.074
    0.134,   -0.125,   -0.063
    0.162,   -0.110,   -0.049
    0.189,   -0.094,   -0.032
    0.217,   -0.078,   -0.015
    0.246,   -0.063,    0.000
    0.272,   -0.050,    0.017
    0.296,   -0.035,    0.036
    0.318,   -0.022,    0.056
    0.340,   -0.008,    0.075
    0.362,    0.005,    0.091
    0.385,    0.019,    0.104
    0.408,    0.032,    0.117
    0.433,    0.045,    0.131
    0.458,    0.059,    0.144
    0.482,    0.073,    0.156
    0.501,    0.087,    0.167
    0.518,    0.101,    0.176
    0.535,    0.114,    0.183
    0.551,    0.125,    0.188
    0.564,    0.131,    0.190
    0.573,    0.133,    0.191
    0.576,    0.135,    0.189
    0.576,    0.135,    0.188
    0.576,    0.134,    0.186
    0.575,    0.129,    0.184
    0.573,    0.124,    0.180
    0.567,    0.119,    0.175
    0.557,    0.116,    0.168
    0.546,    0.112,    0.157
    0.533,    0.108,    0.145
    0.521,    0.102,    0.133
    0.507,    0.098,    0.121
    0.490,    0.094,    0.110
    0.470,    0.091,    0.097
    0.449,    0.089,    0.084
    0.433,    0.087,    0.070
    0.420,    0.085,    0.058
    0.410,    0.082,    0.048
    0.402,    0.077,    0.038
    0.396,    0.070,    0.029
    0.392,    0.062,    0.020
    0.392,    0.058,    0.013
    0.392,    0.055,    0.009
    0.391,    0.050,    0.006
    0.387,    0.042,    0.004
    0.382,    0.033,    0.003
    0.376,    0.027,    0.003
    0.366,    0.024,    0.002
    0.354,    0.025,    0.002
    0.339,    0.025,    0.003
    0.325,    0.022,    0.002
    0.312,    0.019,    0.001
    0.303,    0.017,   -0.000
    0.295,    0.017,   -0.002
    0.289,    0.019,   -0.007
    0.283,    0.019,   -0.012
    0.279,    0.019,   -0.018
    0.278,    0.017,   -0.021
    0.278,    0.016,   -0.022
    0.278,    0.017,   -0.024
    0.275,    0.019,   -0.026
    0.269,    0.022,   -0.029
    0.259,    0.023,   -0.032
    0.246,    0.023,   -0.034
    0.231,    0.023,   -0.035
    0.213,    0.023,   -0.036
    0.193,    0.023,   -0.037
    0.169,    0.024,   -0.040
    0.145,    0.023,   -0.045
    0.119,    0.022,   -0.051
    0.094,    0.020,   -0.058
    0.070,    0.020,   -0.064
    0.046,    0.022,   -0.070
    0.022,    0.025,   -0.077
   -0.000,    0.028,   -0.086
   -0.021,    0.032,   -0.099
   -0.041,    0.037,   -0.112
   -0.062,    0.045,   -0.125
   -0.085,    0.054,   -0.137
   -0.111,    0.061,   -0.148
   -0.134,    0.067,   -0.159
   -0.156,    0.070,   -0.168
   -0.176,    0.071,   -0.179
   -0.196,    0.070,   -0.188
   -0.217,    0.066,   -0.197
   -0.237,    0.057,   -0.205
   -0.255,    0.045,   -0.214
   -0.273,    0.031,   -0.220
   -0.289,    0.017,   -0.225
   -0.304,    0.002,   -0.228
   -0.317,   -0.014,   -0.228
   -0.326,   -0.032,   -0.225
   -0.334,   -0.051,   -0.221
   -0.341,   -0.071,   -0.218
   -0.344,   -0.091,   -0.213
   -0.344,   -0.109,   -0.208
   -0.344,   -0.123,   -0.203
   -0.346,   -0.133,   -0.195
   -0.351,   -0.141,   -0.186
   -0.353,   -0.147,   -0.173
   -0.353,   -0.151,   -0.160
   -0.350,   -0.152,   -0.146
   -0.348,   -0.148,   -0.133
   -0.346,   -0.143,   -0.121
   -0.345,   -0.138,   -0.109
   -0.343,   -0.136,   -0.096
   -0.342,   -0.137,   -0.085
   -0.343,   -0.142,   -0.073
   -0.346,   -0.147,   -0.061
   -0.347,   -0.152,   -0.049
   -0.348,   -0.155,   -0.038
   -0.349,   -0.162,   -0.028
   -0.350,   -0.173,   -0.018
   -0.349,   -0.184,   -0.009
   -0.344,   -0.195,   -0.001
   -0.336,   -0.199,    0.008
   -0.329,   -0.199,    0.018
   -0.323,   -0.198,    0.028
   -0.316,   -0.198,    0.039
   -0.307,   -0.197,    0.052
   -0.294,   -0.194,    0.064
   -0.283,   -0.189,    0.078
   -0.272,   -0.184,    0.089
   -0.263,   -0.180,    0.099
   -0.253,   -0.176,    0.106
   -0.242,   -0.169,    0.113
   -0.228,   -0.161,    0.119
   -0.214,   -0.152,    0.123
   -0.198,   -0.147,    0.125
   -0.180,   -0.145,    0.125
   -0.160,   -0.145,    0.123
   -0.137,   -0.145,    0.121
   -0.110,   -0.145,    0.120
   -0.082,   -0.146,    0.118
   -0.053,   -0.147,    0.116
   -0.025,   -0.150,    0.113
    0.000,   -0.153,    0.111
    0.023,   -0.156,    0.109
    0.044,   -0.159,    0.107
    0.062,   -0.162,    0.104
    0.078,   -0.167,    0.100
    0.090,   -0.171,    0.098
    0.098,   -0.175,    0.098
    0.103,   -0.178,    0.100
    0.106,   -0.180,    0.099
    0.107,   -0.184,    0.096
    0.106,   -0.184,    0.094
    0.104,   -0.183,    0.092
    0.100,   -0.179,    0.091
    0.095,   -0.175,    0.089
    0.094,   -0.172,    0.084
    0.096,   -0.168,    0.076
    0.102,   -0.164,    0.068
    0.107,   -0.157,    0.060
    0.111,   -0.150,    0.054
    0.113,   -0.143,    0.046
    0.116,   -0.134,    0.036
    0.120,   -0.123,    0.025
    0.123,   -0.110,    0.014
    0.125,   -0.098,    0.003
    0.126,   -0.089,   -0.009
    0.128,   -0.082,   -0.020
    0.130,   -0.075,   -0.030
    0.133,   -0.066,   -0.040
    0.136,   -0.055,   -0.050
    0.141,   -0.043,   -0.059
    0.145,   -0.032,   -0.070
    0.151,   -0.023,   -0.082
    0.159,   -0.016,   -0.091
    0.167,   -0.009,   -0.101
    0.177,   -0.002,   -0.110
    0.187,    0.004,   -0.120
    0.195,    0.007,   -0.127
    0.203,    0.011,   -0.132
    0.208,    0.015,   -0.135
    0.207,    0.021,   -0.138
    0.202,    0.027,   -0.144
    0.197,    0.031,   -0.149
    0.195,    0.035,   -0.152
    0.195,    0.041,   -0.155
    0.193,    0.050,   -0.157
    0.182,    0.060,   -0.159
    0.167,    0.069,   -0.161
    0.151,    0.076,   -0.163
    0.141,    0.082,   -0.164
    0.133,    0.085,   -0.164
    0.124,    0.086,   -0.163
    0.113,    0.084,   -0.162
    0.104,    0.080,   -0.161
    0.098,    0.076,   -0.159
    0.095,    0.071,   -0.156
    0.094,    0.068,   -0.154
    0.093,    0.068,   -0.154
    0.096,    0.073,   -0.157
    0.103,    0.080,   -0.158
    0.112,    0.089,   -0.160
    0.120,    0.099,   -0.158
    0.125,    0.110,   -0.155
    0.130,    0.123,   -0.154
    0.136,    0.134,   -0.154
    0.141,    0.143,   -0.157
    0.144,    0.147,   -0.159
    0.148,    0.153,   -0.160
    0.149,    0.160,   -0.160
    0.148,    0.167,   -0.157
    0.146,    0.171,   -0.154
    0.143,    0.172,   -0.150
    0.139,    0.171,   -0.145
    0.134,    0.171,   -0.139
    0.128,    0.171,   -0.131
    0.123,    0.170,   -0.123
    0.118,    0.168,   -0.114
    0.114,    0.166,   -0.103
    0.111,    0.164,   -0.092
    0.107,    0.160,   -0.079
    0.105,    0.154,   -0.066
    0.105,    0.148,   -0.053
    0.110,    0.142,   -0.040
    0.114,    0.137,   -0.027
    0.119,    0.131,   -0.014
    0.128,    0.124,   -0.001
    0.143,    0.115,    0.013
    0.160,    0.105,    0.027
    0.175,    0.095,    0.042
    0.187,    0.088,    0.057
    0.196,    0.082,    0.071
    0.205,    0.076,    0.084
    0.214,    0.067,    0.097
    0.221,    0.055,    0.111
    0.224,    0.042,    0.124
    0.223,    0.032,    0.137
    0.220,    0.023,    0.147
    0.214,    0.012,    0.156
    0.207,   -0.001,    0.163
    0.196,   -0.014,    0.169
    0.182,   -0.024,    0.175
    0.168,   -0.033,    0.178
    0.155,   -0.044,    0.178
    0.144,   -0.059,    0.175
    0.136,   -0.074,    0.172
    0.128,   -0.084,    0.170
    0.119,   -0.088,    0.171
    0.109,   -0.089,    0.173
    0.100,   -0.091,    0.174
    0.094,   -0.095,    0.173
    0.089,   -0.099,    0.169
    0.082,   -0.103,    0.168
    0.077,   -0.105,    0.168
    0.072,   -0.107,    0.169
    0.070,   -0.110,    0.173
    0.070,   -0.112,    0.176
    0.071,   -0.114,    0.179
    0.074,   -0.112,    0.183
    0.077,   -0.108,    0.189
    0.081,   -0.103,    0.196
    0.084,   -0.097,    0.203
    0.086,   -0.091,    0.210
    0.090,   -0.085,    0.217
    0.096,   -0.077,    0.223
    0.101,   -0.068,    0.230
    0.103,   -0.059,    0.237
    0.100,   -0.050,    0.244
    0.095,   -0.041,    0.252
    0.087,   -0.030,    0.260
    0.080,   -0.020,    0.266
    0.071,   -0.012,    0.268
    0.061,   -0.004,    0.268
    0.048,    0.006,    0.269
    0.032,    0.018,    0.270
    0.014,    0.034,    0.270
   -0.004,    0.049,    0.267
   -0.021,    0.064,    0.264
   -0.038,    0.077,    0.259
   -0.053,    0.090,    0.255
   -0.069,    0.105,    0.250
   -0.082,    0.121,    0.245
   -0.094,    0.139,    0.238
   -0.103,    0.154,    0.228
   -0.115,    0.167,    0.218
   -0.127,    0.177,    0.208
   -0.138,    0.189,    0.198
   -0.148,    0.201,    0.189
   -0.158,    0.212,    0.180
   -0.169,    0.221,    0.171
   -0.180,    0.228,    0.160
   -0.190,    0.235,    0.148
   -0.199,    0.246,    0.135
   -0.209,    0.259,    0.122
   -0.219,    0.269,    0.109
   -0.228,    0.280,    0.096
   -0.235,    0.291,    0.084
   -0.236,    0.302,    0.073
   -0.235,    0.314,    0.061
   -0.234,    0.323,    0.049
   -0.231,    0.331,    0.037
   -0.227,    0.338,    0.026
   -0.219,    0.343,    0.015
   -0.212,    0.344,    0.002
   -0.207,    0.342,   -0.011
   -0.203,    0.336,   -0.024
   -0.198,    0.328,   -0.036
   -0.190,    0.320,   -0.046
   -0.180,    0.309,   -0.057
   -0.171,    0.298,   -0.070
   -0.165,    0.287,   -0.084
   -0.159,    0.278,   -0.099
   -0.153,    0.268,   -0.114
   -0.144,    0.252,   -0.130
   -0.134,    0.232,   -0.146
   -0.125,    0.210,   -0.163
   -0.119,    0.189,   -0.181
   -0.118,    0.169,   -0.198
   -0.119,    0.146,   -0.215
   -0.119,    0.118,   -0.232
   -0.117,    0.086,   -0.248
   -0.119,    0.053,   -0.263
   -0.122,    0.018,   -0.277
   -0.128,   -0.015,   -0.289
   -0.134,   -0.047,   -0.298
   -0.141,   -0.079,   -0.304
   -0.148,   -0.111,   -0.310
   -0.155,   -0.141,   -0.315
   -0.161,   -0.169,   -0.318
   -0.165,   -0.193,   -0.318
   -0.166,   -0.215,   -0.316
   -0.168,   -0.237,   -0.315
   -0.169,   -0.255,   -0.315
   -0.172,   -0.271,   -0.315
   -0.174,   -0.282,   -0.315
   -0.177,   -0.292,   -0.314
   -0.180,   -0.300,   -0.311
   -0.180,   -0.307,   -0.307
   -0.178,   -0.310,   -0.301
   -0.175,   -0.310,   -0.293
   -0.177,   -0.310,   -0.285
   -0.180,   -0.310,   -0.277
   -0.182,   -0.310,   -0.270
   -0.180,   -0.309,   -0.262
   -0.175,   -0.308,   -0.252
   -0.171,   -0.310,   -0.239
   -0.167,   -0.315,   -0.226
   -0.162,   -0.321,   -0.213
   -0.157,   -0.326,   -0.200
   -0.153,   -0.330,   -0.184
   -0.155,   -0.337,   -0.168
   -0.160,   -0.345,   -0.152
   -0.166,   -0.353,   -0.137
   -0.169,   -0.360,   -0.124
   -0.172,   -0.367,   -0.108
   -0.177,   -0.374,   -0.090
   -0.186,   -0.379,   -0.072
   -0.196,   -0.380,   -0.055
   -0.206,   -0.378,   -0.038
   -0.212,   -0.376,   -0.021
   -0.217,   -0.373,   -0.005
   -0.222,   -0.370,    0.010
   -0.227,   -0.363,    0.023
   -0.230,   -0.353,    0.036
   -0.228,   -0.344,    0.050
   -0.221,   -0.336,    0.064
   -0.213,   -0.327,    0.075
   -0.204,   -0.313,    0.083
   -0.194,   -0.293,    0.088
   -0.184,   -0.268,    0.093
   -0.170,   -0.241,    0.097
   -0.154,   -0.215,    0.101
   -0.137,   -0.189,    0.104
   -0.120,   -0.160,    0.106
   -0.102,   -0.128,    0.110
   -0.086,   -0.094,    0.114
   -0.071,   -0.059,    0.119
   -0.059,   -0.028,    0.124
   -0.048,   -0.001,    0.130
   -0.036,    0.023,    0.137
   -0.022,    0.045,    0.146
   -0.012,    0.065,    0.156
   -0.005,    0.080,    0.163
   -0.002,    0.091,    0.168
    0.000,    0.100,    0.173
    0.005,    0.110,    0.177
    0.012,    0.120,    0.181
    0.017,    0.131,    0.184
    0.020,    0.141,    0.187
    0.021,    0.151,    0.188
    0.021,    0.162,    0.187
    0.020,    0.175,    0.187
    0.015,    0.189,    0.186
    0.010,    0.203,    0.186
    0.003,    0.215,    0.186
   -0.003,    0.224,    0.186
   -0.009,    0.231,    0.185
   -0.012,    0.237,    0.182
   -0.015,    0.242,    0.180
   -0.017,    0.246,    0.176
   -0.018,    0.247,    0.171
   -0.018,    0.247,    0.166
   -0.016,    0.246,    0.159
   -0.012,    0.249,    0.152
   -0.009,    0.256,    0.144
   -0.005,    0.266,    0.136
   -0.001,    0.280,    0.125
    0.007,    0.297,    0.114
    0.015,    0.316,    0.102
    0.024,    0.337,    0.089
    0.032,    0.357,    0.077
    0.041,    0.377,    0.065
    0.054,    0.396,    0.053
    0.067,    0.411,    0.040
    0.078,    0.420,    0.026
    0.086,    0.425,    0.013
    0.095,    0.428,    0.000
    0.103,    0.431,   -0.012
    0.109,    0.433,   -0.024
    0.113,    0.432,   -0.036
    0.114,    0.426,   -0.048
    0.112,    0.417,   -0.061
    0.109,    0.404,   -0.075
    0.102,    0.387,   -0.089
    0.094,    0.367,   -0.100
    0.087,    0.344,   -0.108
    0.081,    0.321,   -0.113
    0.077,    0.296,   -0.117
    0.073,    0.271,   -0.123
    0.068,    0.244,   -0.128
    0.064,    0.216,   -0.132
    0.059,    0.190,   -0.134
    0.052,    0.165,   -0.133
    0.041,    0.140,   -0.132
    0.026,    0.116,   -0.132
    0.010,    0.092,   -0.131
   -0.006,    0.070,   -0.128
   -0.023,    0.051,   -0.125
   -0.041,    0.034,   -0.123
   -0.061,    0.020,   -0.120
   -0.080,    0.007,   -0.118
   -0.098,   -0.006,   -0.114
   -0.113,   -0.019,   -0.111
   -0.124,   -0.034,   -0.107
   -0.132,   -0.047,   -0.103
   -0.139,   -0.057,   -0.099
   -0.148,   -0.066,   -0.093
   -0.159,   -0.075,   -0.087
   -0.166,   -0.088,   -0.082
   -0.168,   -0.106,   -0.077
   -0.165,   -0.128,   -0.073
   -0.159,   -0.149,   -0.067
   -0.153,   -0.170,   -0.061
   -0.148,   -0.190,   -0.054
   -0.139,   -0.210,   -0.046
   -0.126,   -0.229,   -0.037
   -0.108,   -0.246,   -0.026
   -0.087,   -0.260,   -0.013
   -0.064,   -0.272,    0.002
   -0.039,   -0.282,    0.018
   -0.014,   -0.291,    0.034
    0.012,   -0.296,    0.052
    0.039,   -0.299,    0.070
    0.066,   -0.299,    0.089
    0.092,   -0.298,    0.106
    0.117,   -0.299,    0.120
    0.139,   -0.299,    0.133
    0.159,   -0.296,    0.146
    0.178,   -0.292,    0.157
    0.194,   -0.287,    0.167
    0.209,   -0.284,    0.173
    0.220,   -0.282,    0.177
    0.231,   -0.277,    0.177
    0.239,   -0.267,    0.173
    0.246,   -0.253,    0.167
    0.250,   -0.238,    0.157
    0.253,   -0.224,    0.145
    0.256,   -0.210,    0.132
    0.260,   -0.198,    0.120
    0.266,   -0.186,    0.108
    0.270,   -0.175,    0.095
    0.272,   -0.164,    0.081
    0.272,   -0.151,    0.067
    0.270,   -0.134,    0.055
    0.267,   -0.116,    0.045
    0.264,   -0.096,    0.038
    0.261,   -0.077,    0.032
    0.257,   -0.055,    0.026
    0.249,   -0.030,    0.019
    0.239,   -0.005,    0.013
    0.229,    0.018,    0.007
    0.218,    0.036,    0.004
    0.206,    0.048,    0.003
    0.194,    0.059,    0.001
    0.180,    0.068,   -0.001
    0.166,    0.076,   -0.005
    0.153,    0.081,   -0.009
    0.139,    0.081,   -0.012
    0.124,    0.077,   -0.013
    0.109,    0.070,   -0.012
    0.094,    0.065,   -0.012
    0.080,    0.059,   -0.012
    0.067,    0.053,   -0.012
    0.052,    0.045,   -0.012
    0.036,    0.036,   -0.011
    0.020,    0.027,   -0.008
    0.003,    0.021,   -0.005
   -0.016,    0.015,   -0.004
   -0.038,    0.009,   -0.004
   -0.063,    0.003,   -0.004
   -0.088,   -0.003,   -0.005
   -0.112,   -0.009,   -0.008
   -0.134,   -0.014,   -0.010
   -0.155,   -0.021,   -0.011
   -0.177,   -0.032,   -0.012
   -0.198,   -0.043,   -0.012
   -0.216,   -0.057,   -0.011
   -0.230,   -0.072,   -0.009
   -0.240,   -0.087,   -0.006
   -0.248,   -0.101,   -0.002
   -0.255,   -0.113,    0.000
   -0.263,   -0.123,    0.004
   -0.269,   -0.128,    0.009
   -0.272,   -0.128,    0.015
   -0.272,   -0.126,    0.020
   -0.270,   -0.121,    0.023
   -0.268,   -0.114,    0.024
   -0.264,   -0.104,    0.026
   -0.259,   -0.093,    0.030
   -0.254,   -0.082,    0.036
   -0.247,   -0.074,    0.042
   -0.238,   -0.068,    0.046
   -0.228,   -0.062,    0.047
   -0.217,   -0.055,    0.048
   -0.209,   -0.047,    0.048
   -0.202,   -0.039,    0.047
   -0.196,   -0.034,    0.045
   -0.190,   -0.029,    0.043
   -0.185,   -0.025,    0.040
   -0.181,   -0.023,    0.037
   -0.180,   -0.021,    0.036
   -0.179,   -0.020,    0.036
   -0.178,   -0.018,    0.038
   -0.176,   -0.017,    0.040
   -0.176,   -0.018,    0.043
   -0.176,   -0.019,    0.045
   -0.176,   -0.020,    0.049
   -0.173,   -0.021,    0.054
   -0.169,   -0.020,    0.060
   -0.165,   -0.020,    0.065
   -0.163,   -0.019,    0.072
   -0.163,   -0.018,    0.079
   -0.162,   -0.018,    0.089
   -0.157,   -0.018,    0.103
   -0.153,   -0.020,    0.110
   -0.148,   -0.023,    0.114
   -0.143,   -0.026,    0.118
   -0.137,   -0.032,    0.123
   -0.128,   -0.040,    0.132
   -0.117,   -0.047,    0.140
   -0.103,   -0.054,    0.144
   -0.089,   -0.060,    0.144
   -0.074,   -0.067,    0.139
   -0.059,   -0.075,    0.137
   -0.041,   -0.079,    0.137
   -0.023,   -0.078,    0.139
   -0.005,   -0.076,    0.138
    0.011,   -0.073,    0.135
    0.025,   -0.071,    0.130
    0.038,   -0.067,    0.127
    0.052,   -0.059,    0.125
    0.065,   -0.050,    0.121
    0.076,   -0.041,    0.113
    0.086,   -0.032,    0.103
    0.095,   -0.020,    0.096
    0.102,   -0.004,    0.089
    0.109,    0.012,    0.081
    0.116,    0.025,    0.070
    0.122,    0.035,    0.056
    0.128,    0.046,    0.043
    0.132,    0.061,    0.032
    0.137,    0.077,    0.025
    0.144,    0.092,    0.016
    0.152,    0.102,    0.007
    0.160,    0.111,   -0.002
    0.167,    0.120,   -0.011
    0.173,    0.132,   -0.020
    0.177,    0.147,   -0.027
    0.182,    0.161,   -0.034
    0.188,    0.173,   -0.040
    0.194,    0.180,   -0.045
    0.200,    0.187,   -0.050
    0.206,    0.193,   -0.055
    0.212,    0.198,   -0.061
    0.218,    0.203,   -0.065
    0.221,    0.202,   -0.064
    0.235,    0.210,   -0.068
    0.237,    0.210,   -0.068
    0.246,    0.214,   -0.069
    0.255,    0.220,   -0.070
    0.261,    0.226,   -0.070
    0.268,    0.231,   -0.068
    0.274,    0.237,   -0.062
    0.277,    0.243,   -0.056
    0.276,    0.250,   -0.050
    0.271,    0.256,   -0.044
    0.265,    0.261,   -0.037
    0.259,    0.268,   -0.030
    0.252,    0.273,   -0.022
    0.242,    0.279,   -0.015
    0.229,    0.282,   -0.009
    0.218,    0.284,   -0.005
    0.208,    0.284,   -0.004
    0.202,    0.284,   -0.003
    0.195,    0.283,   -0.001
    0.190,    0.280,    0.003
    0.186,    0.272,    0.007
    0.185,    0.259,    0.010
    0.184,    0.241,    0.008
    0.183,    0.220,    0.004
    0.180,    0.199,   -0.001
    0.175,    0.177,   -0.004
    0.168,    0.153,   -0.005
    0.159,    0.128,   -0.008
    0.148,    0.104,   -0.013
    0.135,    0.082,   -0.020
    0.119,    0.065,   -0.025
    0.103,    0.053,   -0.030
    0.087,    0.041,   -0.036
    0.072,    0.030,   -0.044
    0.057,    0.023,   -0.054
    0.037,    0.020,   -0.062
    0.017,    0.018,   -0.069
   -0.002,    0.013,   -0.075
   -0.020,    0.005,   -0.083
   -0.037,   -0.005,   -0.091
   -0.055,   -0.012,   -0.098
   -0.076,   -0.015,   -0.105
   -0.095,   -0.016,   -0.111
   -0.111,   -0.017,   -0.115
   -0.123,   -0.019,   -0.118
   -0.137,   -0.019,   -0.120
   -0.154,   -0.014,   -0.123
   -0.171,   -0.006,   -0.125
   -0.184,    0.004,   -0.126
   -0.196,    0.014,   -0.126
   -0.206,    0.024,   -0.125
   -0.216,    0.035,   -0.123
   -0.226,    0.045,   -0.121
   -0.230,    0.053,   -0.120
   -0.231,    0.059,   -0.119
   -0.231,    0.063,   -0.117
   -0.232,    0.068,   -0.116
   -0.231,    0.075,   -0.115
   -0.227,    0.081,   -0.116
   -0.221,    0.084,   -0.118
   -0.213,    0.084,   -0.120
   -0.205,    0.083,   -0.122
